     Angle,NE_Rod
2.5,0.333333333
2.51971,0.291666667
2.53941,0.269144144
2.55912,0.198198198
2.57883,0.222972973
2.59853,0.183558559
2.61824,0.20045045
2.63795,0.163288288
2.65765,0.132882883
2.67736,0.122747748
2.69706,0.115990991
2.71677,0.129504505
2.73648,0.109234234
2.75618,0.120495495
2.77589,0.121621622
2.7956,0.126126126
2.8153,0.112612613
2.83501,0.122747748
2.85472,0.097972973
2.87442,0.097972973
2.89413,0.140765766
2.91384,0.111486486
2.93354,0.101351351
2.95325,0.112612613
2.97296,0.108108108
2.99266,0.120495495
3.01237,0.10472973
3.03208,0.115990991
3.05178,0.122747748
3.07149,0.117117117
3.09119,0.112612613
3.1109,0.10472973
3.13061,0.111486486
3.15031,0.108108108
3.17002,0.103603604
3.18973,0.096846847
3.20943,0.114864865
3.22914,0.100225225
3.24885,0.092342342
3.26855,0.101351351
3.28826,0.108108108
3.30797,0.097972973
3.32767,0.129504505
3.34738,0.111486486
3.36709,0.095720721
3.38679,0.105855856
3.4065,0.086711712
3.42621,0.11036036
3.44591,0.099099099
3.46562,0.099099099
3.48533,0.11036036
3.50503,0.111486486
3.52474,0.076576577
3.54444,0.072072072
3.56415,0.097972973
3.58386,0.081081081
3.60356,0.094594595
3.62327,0.105855856
3.64298,0.094594595
3.66268,0.100225225
3.68239,0.093468468
3.7021,0.092342342
3.7218,0.102477477
3.74151,0.094594595
3.76122,0.09009009
3.78092,0.101351351
3.80063,0.108108108
3.82034,0.105855856
3.84004,0.084459459
3.85975,0.106981982
3.87946,0.095720721
3.89916,0.078828829
3.91887,0.111486486
3.93857,0.092342342
3.95828,0.086711712
3.97799,0.087837838
3.99769,0.092342342
4.0174,0.084459459
4.03711,0.103603604
4.05681,0.074324324
4.07652,0.078828829
4.09623,0.087837838
4.11593,0.087837838
4.13564,0.09009009
4.15535,0.088963964
4.17505,0.070945946
4.19476,0.086711712
4.21447,0.096846847
4.23417,0.086711712
4.25388,0.073198198
4.27358,0.076576577
4.29329,0.076576577
4.313,0.092342342
4.3327,0.085585586
4.35241,0.072072072
4.37212,0.087837838
4.39182,0.084459459
4.41153,0.084459459
4.43124,0.082207207
4.45094,0.083333333
4.47065,0.085585586
4.49036,0.108108108
4.51006,0.087837838
4.52977,0.076576577
4.54948,0.074324324
4.56918,0.066441441
4.58889,0.070945946
4.6086,0.068693694
4.6283,0.085585586
4.64801,0.079954955
4.66771,0.079954955
4.68742,0.058558559
4.70713,0.078828829
4.72683,0.086711712
4.74654,0.074324324
4.76625,0.065315315
4.78595,0.070945946
4.80566,0.083333333
4.82537,0.060810811
4.84507,0.072072072
4.86478,0.068693694
4.88449,0.072072072
4.90419,0.054054054
4.9239,0.061936937
4.94361,0.086711712
4.96331,0.061936937
4.98302,0.064189189
5.00273,0.068693694
5.02243,0.063063063
5.04214,0.066441441
5.06184,0.076576577
5.08155,0.070945946
5.10126,0.045045045
5.12096,0.070945946
5.14067,0.074324324
5.16038,0.060810811
5.18008,0.060810811
5.19979,0.076576577
5.2195,0.061936937
5.2392,0.056306306
5.25891,0.063063063
5.27862,0.043918919
5.29832,0.051801802
5.31803,0.05518018
5.33774,0.064189189
5.35744,0.039414414
5.37715,0.057432432
5.39686,0.05518018
5.41656,0.057432432
5.43627,0.041666667
5.45597,0.046171171
5.47568,0.056306306
5.49539,0.04954955
5.51509,0.04954955
5.5348,0.041666667
5.55451,0.066441441
5.57421,0.054054054
5.59392,0.042792793
5.61363,0.051801802
5.63333,0.048423423
5.65304,0.054054054
5.67275,0.052927928
5.69245,0.039414414
5.71216,0.040540541
5.73187,0.051801802
5.75157,0.045045045
5.77128,0.060810811
5.79099,0.039414414
5.81069,0.051801802
5.8304,0.046171171
5.85011,0.036036036
5.86981,0.042792793
5.88952,0.051801802
5.90922,0.047297297
5.92893,0.04954955
5.94864,0.03490991
5.96834,0.043918919
5.98805,0.042792793
6.00776,0.023648649
6.02746,0.038288288
6.04717,0.042792793
6.06688,0.037162162
6.08658,0.036036036
6.10629,0.039414414
6.126,0.038288288
6.1457,0.030405405
6.16541,0.043918919
6.18512,0.032657658
6.20482,0.030405405
6.22453,0.036036036
6.24423,0.036036036
6.26394,0.018018018
6.28365,0.032657658
6.30335,0.023648649
6.32306,0.032657658
6.34277,0.043918919
6.36247,0.022522523
6.38218,0.031531532
6.40189,0.032657658
6.42159,0.033783784
6.4413,0.036036036
6.46101,0.030405405
6.48071,0.023648649
6.50042,0.028153153
6.52013,0.027027027
6.53983,0.027027027
6.55954,0.033783784
6.57925,0.030405405
6.59895,0.029279279
6.61866,0.032657658
6.63836,0.02027027
6.65807,0.019144144
6.67778,0.027027027
6.69748,0.023648649
6.71719,0.019144144
6.7369,0.033783784
6.7566,0.033783784
6.77631,0.027027027
6.79602,0.018018018
6.81572,0.028153153
6.83543,0.029279279
6.85514,0.025900901
6.87484,0.025900901
6.89455,0.025900901
6.91426,0.024774775
6.93396,0.029279279
6.95367,0.025900901
6.97338,0.028153153
6.99308,0.022522523
7.01279,0.029279279
7.03249,0.031531532
7.0522,0.028153153
7.07191,0.032657658
7.09161,0.021396396
7.11132,0.023648649
7.13103,0.022522523
7.15073,0.031531532
7.17044,0.025900901
7.19015,0.037162162
7.20985,0.02027027
7.22956,0.025900901
7.24927,0.027027027
7.26897,0.01463964
7.28868,0.022522523
7.30839,0.019144144
7.32809,0.023648649
7.3478,0.028153153
7.36751,0.021396396
7.38721,0.036036036
7.40692,0.023648649
7.42662,0.025900901
7.44633,0.024774775
7.46604,0.025900901
7.48574,0.03490991
7.50545,0.033783784
7.52516,0.030405405
7.54486,0.036036036
7.56457,0.02027027
7.58428,0.028153153
7.60398,0.036036036
7.62369,0.024774775
7.6434,0.022522523
7.6631,0.028153153
7.68281,0.030405405
7.70252,0.023648649
7.72222,0.027027027
7.74193,0.016891892
7.76164,0.036036036
7.78134,0.023648649
7.80105,0.022522523
7.82075,0.022522523
7.84046,0.031531532
7.86017,0.031531532
7.87987,0.031531532
7.89958,0.023648649
7.91929,0.022522523
7.93899,0.023648649
7.9587,0.022522523
7.97841,0.025900901
7.99811,0.012387387
8.01782,0.022522523
8.03753,0.024774775
8.05723,0.013513514
8.07694,0.018018018
8.09665,0.016891892
8.11635,0.022522523
8.13606,0.028153153
8.15577,0.024774775
8.17547,0.031531532
8.19518,0.027027027
8.21488,0.016891892
8.23459,0.02027027
8.2543,0.01463964
8.274,0.012387387
8.29371,0.032657658
8.31342,0.029279279
8.33312,0.018018018
8.35283,0.025900901
8.37254,0.030405405
8.39224,0.02027027
8.41195,0.021396396
8.43166,0.019144144
8.45136,0.027027027
8.47107,0.015765766
8.49078,0.021396396
8.51048,0.023648649
8.53019,0.023648649
8.5499,0.022522523
8.5696,0.025900901
8.58931,0.031531532
8.60901,0.029279279
8.62872,0.030405405
8.64843,0.01463964
8.66813,0.022522523
8.68784,0.021396396
8.70755,0.029279279
8.72725,0.024774775
8.74696,0.033783784
8.76667,0.021396396
8.78637,0.028153153
8.80608,0.023648649
8.82579,0.028153153
8.84549,0.013513514
8.8652,0.023648649
8.88491,0.012387387
8.90461,0.027027027
8.92432,0.025900901
8.94403,0.019144144
8.96373,0.023648649
8.98344,0.031531532
9.00315,0.027027027
9.02285,0.016891892
9.04256,0.016891892
9.06226,0.018018018
9.08197,0.023648649
9.10168,0.029279279
9.12138,0.029279279
9.14109,0.027027027
9.1608,0.02027027
9.1805,0.029279279
9.20021,0.025900901
9.21992,0.031531532
9.23962,0.027027027
9.25933,0.032657658
9.27904,0.041666667
9.29874,0.045045045
9.31845,0.046171171
9.33816,0.060810811
9.35786,0.057432432
9.37757,0.045045045
9.39727,0.041666667
9.41698,0.031531532
9.43669,0.024774775
9.45639,0.024774775
9.4761,0.033783784
9.49581,0.032657658
9.51551,0.047297297
9.53522,0.040540541
9.55493,0.048423423
9.57463,0.047297297
9.59434,0.050675676
9.61405,0.066441441
9.63375,0.101351351
9.65346,0.093468468
9.67317,0.150900901
9.69287,0.137387387
9.71258,0.113738739
9.73229,0.129504505
9.75199,0.091216216
9.7717,0.057432432
9.7914,0.046171171
9.81111,0.031531532
9.83082,0.03490991
9.85052,0.030405405
9.87023,0.025900901
9.88994,0.021396396
9.90964,0.025900901
9.92935,0.023648649
9.94906,0.018018018
9.96876,0.018018018
9.98847,0.024774775
10.0082,0.016891892
10.0279,0.015765766
10.0476,0.021396396
10.0673,0.024774775
10.087,0.021396396
10.1067,0.022522523
10.1264,0.02027027
10.1461,0.016891892
10.1658,0.023648649
10.1855,0.02027027
10.2052,0.021396396
10.2249,0.01463964
10.2447,0.02027027
10.2644,0.013513514
10.2841,0.02027027
10.3038,0.027027027
10.3235,0.025900901
10.3432,0.021396396
10.3629,0.02027027
10.3826,0.023648649
10.4023,0.028153153
10.422,0.027027027
10.4417,0.025900901
10.4614,0.019144144
10.4811,0.02027027
10.5008,0.012387387
10.5205,0.021396396
10.5403,0.016891892
10.56,0.022522523
10.5797,0.02027027
10.5994,0.02027027
10.6191,0.02027027
10.6388,0.016891892
10.6585,0.021396396
10.6782,0.018018018
10.6979,0.023648649
10.7176,0.013513514
10.7373,0.027027027
10.757,0.016891892
10.7767,0.019144144
10.7964,0.016891892
10.8161,0.013513514
10.8358,0.007882883
10.8556,0.01463964
10.8753,0.013513514
10.895,0.019144144
10.9147,0.023648649
10.9344,0.016891892
10.9541,0.024774775
10.9738,0.022522523
10.9935,0.012387387
11.0132,0.024774775
11.0329,0.015765766
11.0526,0.024774775
11.0723,0.031531532
11.092,0.025900901
11.1117,0.022522523
11.1314,0.03490991
11.1512,0.027027027
11.1709,0.022522523
11.1906,0.037162162
11.2103,0.046171171
11.23,0.032657658
11.2497,0.056306306
11.2694,0.052927928
11.2891,0.060810811
11.3088,0.074324324
11.3285,0.066441441
11.3482,0.102477477
11.3679,0.127252252
11.3876,0.155405405
11.4073,0.231981982
11.427,0.331081081
11.4468,0.347972973
11.4665,0.397522523
11.4862,0.358108108
11.5059,0.34009009
11.5256,0.293918919
11.5453,0.13963964
11.565,0.095720721
11.5847,0.060810811
11.6044,0.038288288
11.6241,0.036036036
11.6438,0.029279279
11.6635,0.029279279
11.6832,0.03490991
11.7029,0.024774775
11.7226,0.025900901
11.7423,0.025900901
11.7621,0.028153153
11.7818,0.022522523
11.8015,0.032657658
11.8212,0.016891892
11.8409,0.025900901
11.8606,0.027027027
11.8803,0.018018018
11.9,0.022522523
11.9197,0.021396396
11.9394,0.019144144
11.9591,0.024774775
11.9788,0.018018018
11.9985,0.021396396
12.0182,0.029279279
12.0379,0.016891892
12.0577,0.021396396
12.0774,0.021396396
12.0971,0.029279279
12.1168,0.019144144
12.1365,0.01463964
12.1562,0.023648649
12.1759,0.015765766
12.1956,0.013513514
12.2153,0.01463964
12.235,0.025900901
12.2547,0.016891892
12.2744,0.018018018
12.2941,0.022522523
12.3138,0.021396396
12.3335,0.021396396
12.3532,0.016891892
12.373,0.013513514
12.3927,0.01463964
12.4124,0.023648649
12.4321,0.037162162
12.4518,0.016891892
12.4715,0.016891892
12.4912,0.022522523
12.5109,0.010135135
12.5306,0.029279279
12.5503,0.028153153
12.57,0.016891892
12.5897,0.019144144
12.6094,0.023648649
12.6291,0.028153153
12.6488,0.028153153
12.6686,0.021396396
12.6883,0.019144144
12.708,0.02027027
12.7277,0.025900901
12.7474,0.02027027
12.7671,0.021396396
12.7868,0.025900901
12.8065,0.022522523
12.8262,0.025900901
12.8459,0.019144144
12.8656,0.018018018
12.8853,0.021396396
12.905,0.036036036
12.9247,0.027027027
12.9444,0.029279279
12.9642,0.037162162
12.9839,0.033783784
13.0036,0.041666667
13.0233,0.033783784
13.043,0.041666667
13.0627,0.039414414
13.0824,0.036036036
13.1021,0.021396396
13.1218,0.03490991
13.1415,0.037162162
13.1612,0.031531532
13.1809,0.018018018
13.2006,0.027027027
13.2203,0.038288288
13.24,0.032657658
13.2597,0.031531532
13.2795,0.030405405
13.2992,0.027027027
13.3189,0.024774775
13.3386,0.021396396
13.3583,0.021396396
13.378,0.02027027
13.3977,0.027027027
13.4174,0.028153153
13.4371,0.037162162
13.4568,0.041666667
13.4765,0.037162162
13.4962,0.054054054
13.5159,0.057432432
13.5356,0.101351351
13.5553,0.078828829
13.5751,0.083333333
13.5948,0.092342342
13.6145,0.074324324
13.6342,0.047297297
13.6539,0.042792793
13.6736,0.031531532
13.6933,0.023648649
13.713,0.023648649
13.7327,0.030405405
13.7524,0.024774775
13.7721,0.019144144
13.7918,0.032657658
13.8115,0.033783784
13.8312,0.031531532
13.8509,0.024774775
13.8707,0.02027027
13.8904,0.033783784
13.9101,0.036036036
13.9298,0.045045045
13.9495,0.041666667
13.9692,0.063063063
13.9889,0.095720721
14.0086,0.100225225
14.0283,0.113738739
14.048,0.111486486
14.0677,0.144144144
14.0874,0.130630631
14.1071,0.093468468
14.1268,0.086711712
14.1465,0.051801802
14.1662,0.03490991
14.186,0.030405405
14.2057,0.015765766
14.2254,0.031531532
14.2451,0.022522523
14.2648,0.013513514
14.2845,0.015765766
14.3042,0.023648649
14.3239,0.015765766
14.3436,0.019144144
14.3633,0.019144144
14.383,0.025900901
14.4027,0.01463964
14.4224,0.031531532
14.4421,0.024774775
14.4618,0.01463964
14.4816,0.021396396
14.5013,0.012387387
14.521,0.01463964
14.5407,0.02027027
14.5604,0.02027027
14.5801,0.01463964
14.5998,0.011261261
14.6195,0.011261261
14.6392,0.013513514
14.6589,0.016891892
14.6786,0.025900901
14.6983,0.02027027
14.718,0.018018018
14.7377,0.019144144
14.7574,0.022522523
14.7771,0.018018018
14.7969,0.019144144
14.8166,0.02027027
14.8363,0.025900901
14.856,0.021396396
14.8757,0.013513514
14.8954,0.019144144
14.9151,0.015765766
14.9348,0.022522523
14.9545,0.019144144
14.9742,0.022522523
14.9939,0.02027027
15.0136,0.018018018
15.0333,0.018018018
15.053,0.015765766
15.0727,0.02027027
15.0925,0.011261261
15.1122,0.015765766
15.1319,0.019144144
15.1516,0.027027027
15.1713,0.019144144
15.191,0.022522523
15.2107,0.025900901
15.2304,0.011261261
15.2501,0.021396396
15.2698,0.018018018
15.2895,0.016891892
15.3092,0.022522523
15.3289,0.019144144
15.3486,0.025900901
15.3683,0.016891892
15.3881,0.025900901
15.4078,0.024774775
15.4275,0.025900901
15.4472,0.030405405
15.4669,0.016891892
15.4866,0.024774775
15.5063,0.02027027
15.526,0.02027027
15.5457,0.018018018
15.5654,0.021396396
15.5851,0.016891892
15.6048,0.021396396
15.6245,0.024774775
15.6442,0.023648649
15.6639,0.028153153
15.6836,0.018018018
15.7034,0.031531532
15.7231,0.028153153
15.7428,0.023648649
15.7625,0.021396396
15.7822,0.019144144
15.8019,0.028153153
15.8216,0.02027027
15.8413,0.018018018
15.861,0.015765766
15.8807,0.018018018
15.9004,0.016891892
15.9201,0.022522523
15.9398,0.023648649
15.9595,0.024774775
15.9792,0.029279279
15.999,0.022522523
16.0187,0.019144144
16.0384,0.036036036
16.0581,0.031531532
16.0778,0.031531532
16.0975,0.042792793
16.1172,0.061936937
16.1369,0.073198198
16.1566,0.084459459
16.1763,0.100225225
16.196,0.106981982
16.2157,0.105855856
16.2354,0.103603604
16.2551,0.079954955
16.2748,0.06981982
16.2945,0.043918919
16.3143,0.041666667
16.334,0.031531532
16.3537,0.042792793
16.3734,0.036036036
16.3931,0.037162162
16.4128,0.041666667
16.4325,0.043918919
16.4522,0.031531532
16.4719,0.03490991
16.4916,0.043918919
16.5113,0.045045045
16.531,0.054054054
16.5507,0.051801802
16.5704,0.047297297
16.5901,0.064189189
16.6099,0.045045045
16.6296,0.048423423
16.6493,0.048423423
16.669,0.054054054
16.6887,0.043918919
16.7084,0.03490991
16.7281,0.040540541
16.7478,0.032657658
16.7675,0.051801802
16.7872,0.032657658
16.8069,0.038288288
16.8266,0.030405405
16.8463,0.024774775
16.866,0.036036036
16.8857,0.024774775
16.9055,0.039414414
16.9252,0.024774775
16.9449,0.029279279
16.9646,0.043918919
16.9843,0.041666667
17.004,0.048423423
17.0237,0.036036036
17.0434,0.061936937
17.0631,0.065315315
17.0828,0.061936937
17.1025,0.074324324
17.1222,0.088963964
17.1419,0.127252252
17.1616,0.152027027
17.1813,0.177927928
17.201,0.242117117
17.2208,0.353603604
17.2405,0.507882883
17.2602,0.724099099
17.2799,0.852477477
17.2996,0.941441441
17.3193,1
17.339,0.879504505
17.3587,0.664414414
17.3784,0.483108108
17.3981,0.341216216
17.4178,0.20045045
17.4375,0.111486486
17.4572,0.085585586
17.4769,0.072072072
17.4966,0.057432432
17.5164,0.037162162
17.5361,0.045045045
17.5558,0.043918919
17.5755,0.042792793
17.5952,0.045045045
17.6149,0.045045045
17.6346,0.041666667
17.6543,0.036036036
17.674,0.056306306
17.6937,0.068693694
17.7134,0.032657658
17.7331,0.047297297
17.7528,0.038288288
17.7725,0.028153153
17.7922,0.037162162
17.812,0.033783784
17.8317,0.025900901
17.8514,0.033783784
17.8711,0.028153153
17.8908,0.022522523
17.9105,0.024774775
17.9302,0.03490991
17.9499,0.033783784
17.9696,0.032657658
17.9893,0.023648649
18.009,0.029279279
18.0287,0.03490991
18.0484,0.038288288
18.0681,0.018018018
18.0878,0.024774775
18.1075,0.027027027
18.1273,0.027027027
18.147,0.028153153
18.1667,0.028153153
18.1864,0.023648649
18.2061,0.024774775
18.2258,0.033783784
18.2455,0.021396396
18.2652,0.028153153
18.2849,0.029279279
18.3046,0.037162162
18.3243,0.047297297
18.344,0.030405405
18.3637,0.036036036
18.3834,0.03490991
18.4031,0.04954955
18.4229,0.072072072
18.4426,0.060810811
18.4623,0.054054054
18.482,0.065315315
18.5017,0.065315315
18.5214,0.056306306
18.5411,0.054054054
18.5608,0.072072072
18.5805,0.081081081
18.6002,0.109234234
18.6199,0.156531532
18.6396,0.166666667
18.6593,0.220720721
18.679,0.203828829
18.6987,0.271396396
18.7184,0.243243243
18.7382,0.239864865
18.7579,0.173423423
18.7776,0.122747748
18.7973,0.103603604
18.817,0.09009009
18.8367,0.094594595
18.8564,0.085585586
18.8761,0.115990991
18.8958,0.109234234
18.9155,0.120495495
18.9352,0.122747748
18.9549,0.105855856
18.9746,0.082207207
18.9943,0.096846847
19.014,0.068693694
19.0338,0.059684685
19.0535,0.043918919
19.0732,0.054054054
19.0929,0.050675676
19.1126,0.061936937
19.1323,0.054054054
19.152,0.06981982
19.1717,0.074324324
19.1914,0.077702703
19.2111,0.097972973
19.2308,0.081081081
19.2505,0.064189189
19.2702,0.07545045
19.2899,0.06981982
19.3096,0.065315315
19.3294,0.046171171
19.3491,0.04954955
19.3688,0.043918919
19.3885,0.032657658
19.4082,0.041666667
19.4279,0.039414414
19.4476,0.037162162
19.4673,0.048423423
19.487,0.060810811
19.5067,0.064189189
19.5264,0.086711712
19.5461,0.131756757
19.5658,0.164414414
19.5855,0.182432432
19.6052,0.161036036
19.6249,0.202702703
19.6447,0.210585586
19.6644,0.193693694
19.6841,0.154279279
19.7038,0.127252252
19.7235,0.112612613
19.7432,0.118243243
19.7629,0.135135135
19.7826,0.092342342
19.8023,0.113738739
19.822,0.149774775
19.8417,0.171171171
19.8614,0.206081081
19.8811,0.266891892
19.9008,0.279279279
19.9205,0.311936937
19.9403,0.334459459
19.96,0.236486486
19.9797,0.226351351
19.9994,0.148648649
20.0191,0.106981982
20.0388,0.084459459
20.0585,0.051801802
20.0782,0.060810811
20.0979,0.04954955
20.1176,0.043918919
20.1373,0.036036036
20.157,0.052927928
20.1767,0.030405405
20.1964,0.031531532
20.2161,0.042792793
20.2358,0.031531532
20.2556,0.036036036
20.2753,0.033783784
20.295,0.022522523
20.3147,0.029279279
20.3344,0.031531532
20.3541,0.022522523
20.3738,0.030405405
20.3935,0.027027027
20.4132,0.031531532
20.4329,0.032657658
20.4526,0.033783784
20.4723,0.033783784
20.492,0.024774775
20.5117,0.025900901
20.5314,0.02027027
20.5512,0.033783784
20.5709,0.022522523
20.5906,0.030405405
20.6103,0.028153153
20.63,0.023648649
20.6497,0.027027027
20.6694,0.031531532
20.6891,0.022522523
20.7088,0.030405405
20.7285,0.033783784
20.7482,0.040540541
20.7679,0.015765766
20.7876,0.030405405
20.8073,0.028153153
20.827,0.023648649
20.8468,0.032657658
20.8665,0.036036036
20.8862,0.036036036
20.9059,0.024774775
20.9256,0.038288288
20.9453,0.028153153
20.965,0.03490991
20.9847,0.03490991
21.0044,0.029279279
21.0241,0.027027027
21.0438,0.031531532
21.0635,0.050675676
21.0832,0.037162162
21.1029,0.060810811
21.1226,0.056306306
21.1423,0.051801802
21.1621,0.057432432
21.1818,0.047297297
21.2015,0.039414414
21.2212,0.051801802
21.2409,0.033783784
21.2606,0.025900901
21.2803,0.036036036
21.3,0.024774775
21.3197,0.027027027
21.3394,0.023648649
21.3591,0.024774775
21.3788,0.023648649
21.3985,0.028153153
21.4182,0.025900901
21.4379,0.025900901
21.4577,0.021396396
21.4774,0.03490991
21.4971,0.032657658
21.5168,0.037162162
21.5365,0.031531532
21.5562,0.037162162
21.5759,0.048423423
21.5956,0.045045045
21.6153,0.065315315
21.635,0.040540541
21.6547,0.045045045
21.6744,0.048423423
21.6941,0.054054054
21.7138,0.048423423
21.7335,0.038288288
21.7533,0.032657658
21.773,0.032657658
21.7927,0.033783784
21.8124,0.057432432
21.8321,0.04954955
21.8518,0.048423423
21.8715,0.058558559
21.8912,0.050675676
21.9109,0.051801802
21.9306,0.070945946
21.9503,0.070945946
21.97,0.068693694
21.9897,0.051801802
22.0094,0.057432432
22.0291,0.043918919
22.0488,0.046171171
22.0686,0.056306306
22.0883,0.046171171
22.108,0.056306306
22.1277,0.052927928
22.1474,0.045045045
22.1671,0.030405405
22.1868,0.03490991
22.2065,0.030405405
22.2262,0.03490991
22.2459,0.021396396
22.2656,0.027027027
22.2853,0.031531532
22.305,0.025900901
22.3247,0.01463964
22.3444,0.033783784
22.3642,0.028153153
22.3839,0.031531532
22.4036,0.016891892
22.4233,0.036036036
22.443,0.02027027
22.4627,0.043918919
22.4824,0.041666667
22.5021,0.027027027
22.5218,0.037162162
22.5415,0.030405405
22.5612,0.039414414
22.5809,0.040540541
22.6006,0.045045045
22.6203,0.024774775
22.64,0.042792793
22.6597,0.033783784
22.6795,0.031531532
22.6992,0.036036036
22.7189,0.038288288
22.7386,0.024774775
22.7583,0.050675676
22.778,0.030405405
22.7977,0.057432432
22.8174,0.056306306
22.8371,0.06981982
22.8568,0.086711712
22.8765,0.092342342
22.8962,0.077702703
22.9159,0.09009009
22.9356,0.102477477
22.9553,0.11036036
22.9751,0.088963964
22.9948,0.091216216
23.0145,0.134009009
23.0342,0.103603604
23.0539,0.101351351
23.0736,0.096846847
23.0933,0.102477477
23.113,0.119369369
23.1327,0.114864865
23.1524,0.120495495
23.1721,0.117117117
23.1918,0.100225225
23.2115,0.095720721
23.2312,0.113738739
23.2509,0.07545045
23.2707,0.064189189
23.2904,0.066441441
23.3101,0.060810811
23.3298,0.037162162
23.3495,0.048423423
23.3692,0.031531532
23.3889,0.045045045
23.4086,0.043918919
23.4283,0.041666667
23.448,0.042792793
23.4677,0.029279279
23.4874,0.028153153
23.5071,0.030405405
23.5268,0.03490991
23.5465,0.030405405
23.5662,0.038288288
23.586,0.048423423
23.6057,0.046171171
23.6254,0.050675676
23.6451,0.06981982
23.6648,0.064189189
23.6845,0.074324324
23.7042,0.093468468
23.7239,0.083333333
23.7436,0.073198198
23.7633,0.059684685
23.783,0.063063063
23.8027,0.046171171
23.8224,0.041666667
23.8421,0.033783784
23.8618,0.039414414
23.8816,0.038288288
23.9013,0.031531532
23.921,0.033783784
23.9407,0.033783784
23.9604,0.023648649
23.9801,0.023648649
23.9998,0.02027027
24.0195,0.024774775
24.0392,0.03490991
24.0589,0.025900901
24.0786,0.027027027
24.0983,0.024774775
24.118,0.023648649
24.1377,0.038288288
24.1574,0.041666667
24.1771,0.024774775
24.1969,0.041666667
24.2166,0.028153153
24.2363,0.032657658
24.256,0.029279279
24.2757,0.03490991
24.2954,0.041666667
24.3151,0.036036036
24.3348,0.037162162
24.3545,0.029279279
24.3742,0.033783784
24.3939,0.027027027
24.4136,0.03490991
24.4333,0.029279279
24.453,0.039414414
24.4727,0.037162162
24.4925,0.027027027
24.5122,0.032657658
24.5319,0.043918919
24.5516,0.051801802
24.5713,0.046171171
24.591,0.028153153
24.6107,0.047297297
24.6304,0.036036036
24.6501,0.033783784
24.6698,0.042792793
24.6895,0.043918919
24.7092,0.048423423
24.7289,0.051801802
24.7486,0.05518018
24.7683,0.052927928
24.7881,0.037162162
24.8078,0.052927928
24.8275,0.043918919
24.8472,0.039414414
24.8669,0.039414414
24.8866,0.031531532
24.9063,0.024774775
24.926,0.021396396
24.9457,0.022522523
24.9654,0.027027027
24.9851,0.021396396
25.0048,0.024774775
25.0245,0.018018018
25.0442,0.022522523
25.0639,0.015765766
25.0836,0.031531532
25.1034,0.025900901
25.1231,0.029279279
25.1428,0.022522523
25.1625,0.024774775
25.1822,0.027027027
25.2019,0.028153153
25.2216,0.021396396
25.2413,0.027027027
25.261,0.028153153
25.2807,0.032657658
25.3004,0.038288288
25.3201,0.029279279
25.3398,0.027027027
25.3595,0.027027027
25.3792,0.028153153
25.399,0.027027027
25.4187,0.033783784
25.4384,0.028153153
25.4581,0.025900901
25.4778,0.025900901
25.4975,0.03490991
25.5172,0.028153153
25.5369,0.02027027
25.5566,0.027027027
25.5763,0.023648649
25.596,0.031531532
25.6157,0.02027027
25.6354,0.023648649
25.6551,0.025900901
25.6748,0.027027027
25.6946,0.028153153
25.7143,0.030405405
25.734,0.024774775
25.7537,0.023648649
25.7734,0.024774775
25.7931,0.024774775
25.8128,0.032657658
25.8325,0.02027027
25.8522,0.03490991
25.8719,0.031531532
25.8916,0.024774775
25.9113,0.016891892
25.931,0.02027027
25.9507,0.02027027
25.9704,0.024774775
25.9901,0.021396396
26.0099,0.036036036
26.0296,0.041666667
26.0493,0.036036036
26.069,0.04954955
26.0887,0.036036036
26.1084,0.046171171
26.1281,0.051801802
26.1478,0.042792793
26.1675,0.047297297
26.1872,0.032657658
26.2069,0.025900901
26.2266,0.021396396
26.2463,0.028153153
26.266,0.024774775
26.2857,0.022522523
26.3055,0.023648649
26.3252,0.030405405
26.3449,0.027027027
26.3646,0.036036036
26.3843,0.030405405
26.404,0.029279279
26.4237,0.028153153
26.4434,0.022522523
26.4631,0.02027027
26.4828,0.023648649
26.5025,0.024774775
26.5222,0.021396396
26.5419,0.022522523
26.5616,0.019144144
26.5813,0.022522523
26.601,0.021396396
26.6208,0.021396396
26.6405,0.033783784
26.6602,0.022522523
26.6799,0.025900901
26.6996,0.037162162
26.7193,0.025900901
26.739,0.03490991
26.7587,0.037162162
26.7784,0.033783784
26.7981,0.033783784
26.8178,0.025900901
26.8375,0.023648649
26.8572,0.030405405
26.8769,0.028153153
26.8966,0.023648649
26.9164,0.028153153
26.9361,0.022522523
26.9558,0.036036036
26.9755,0.039414414
26.9952,0.040540541
27.0149,0.029279279
27.0346,0.041666667
27.0543,0.039414414
27.074,0.031531532
27.0937,0.041666667
27.1134,0.039414414
27.1331,0.037162162
27.1528,0.042792793
27.1725,0.037162162
27.1922,0.03490991
27.212,0.027027027
27.2317,0.019144144
27.2514,0.024774775
27.2711,0.030405405
27.2908,0.022522523
27.3105,0.015765766
27.3302,0.024774775
27.3499,0.025900901
27.3696,0.021396396
27.3893,0.021396396
27.409,0.033783784
27.4287,0.041666667
27.4484,0.036036036
27.4681,0.033783784
27.4878,0.03490991
27.5075,0.032657658
27.5273,0.033783784
27.547,0.032657658
27.5667,0.031531532
27.5864,0.023648649
27.6061,0.027027027
27.6258,0.025900901
27.6455,0.032657658
27.6652,0.015765766
27.6849,0.031531532
27.7046,0.028153153
27.7243,0.023648649
27.744,0.024774775
27.7637,0.027027027
27.7834,0.030405405
27.8031,0.029279279
27.8229,0.032657658
27.8426,0.036036036
27.8623,0.041666667
27.882,0.03490991
27.9017,0.027027027
27.9214,0.028153153
27.9411,0.031531532
27.9608,0.024774775
27.9805,0.027027027
28.0002,0.031531532
28.0199,0.02027027
28.0396,0.019144144
28.0593,0.027027027
28.079,0.016891892
28.0987,0.028153153
28.1184,0.022522523
28.1382,0.01463964
28.1579,0.024774775
28.1776,0.024774775
28.1973,0.012387387
28.217,0.019144144
28.2367,0.029279279
28.2564,0.024774775
28.2761,0.025900901
28.2958,0.032657658
28.3155,0.029279279
28.3352,0.028153153
28.3549,0.022522523
28.3746,0.027027027
28.3943,0.036036036
28.414,0.038288288
28.4338,0.041666667
28.4535,0.043918919
28.4732,0.038288288
28.4929,0.045045045
28.5126,0.059684685
28.5323,0.038288288
28.552,0.042792793
28.5717,0.037162162
28.5914,0.03490991
28.6111,0.032657658
28.6308,0.030405405
28.6505,0.028153153
28.6702,0.039414414
28.6899,0.033783784
28.7096,0.03490991
28.7294,0.025900901
28.7491,0.027027027
28.7688,0.023648649
28.7885,0.019144144
28.8082,0.028153153
28.8279,0.027027027
28.8476,0.018018018
28.8673,0.022522523
28.887,0.018018018
28.9067,0.022522523
28.9264,0.021396396
28.9461,0.012387387
28.9658,0.02027027
28.9855,0.023648649
29.0052,0.025900901
29.0249,0.016891892
29.0447,0.024774775
29.0644,0.030405405
29.0841,0.029279279
29.1038,0.028153153
29.1235,0.029279279
29.1432,0.029279279
29.1629,0.025900901
29.1826,0.028153153
29.2023,0.022522523
29.222,0.03490991
29.2417,0.028153153
29.2614,0.019144144
29.2811,0.024774775
29.3008,0.025900901
29.3205,0.022522523
29.3403,0.021396396
29.36,0.019144144
29.3797,0.019144144
29.3994,0.018018018
29.4191,0.024774775
29.4388,0.023648649
29.4585,0.016891892
29.4782,0.019144144
29.4979,0.023648649
29.5176,0.02027027
29.5373,0.031531532
29.557,0.016891892
29.5767,0.023648649
29.5964,0.01463964
29.6161,0.016891892
29.6359,0.016891892
29.6556,0.030405405
29.6753,0.029279279
29.695,0.028153153
29.7147,0.03490991
29.7344,0.025900901
29.7541,0.032657658
29.7738,0.024774775
29.7935,0.029279279
29.8132,0.027027027
29.8329,0.028153153
29.8526,0.019144144
29.8723,0.018018018
29.892,0.030405405
29.9117,0.023648649
29.9314,0.030405405
29.9512,0.021396396
29.9709,0.027027027
29.9906,0.025900901
30.0103,0.028153153
30.03,0.019144144
30.0497,0.01463964
30.0694,0.022522523
30.0891,0.021396396
30.1088,0.029279279
30.1285,0.019144144
30.1482,0.019144144
30.1679,0.016891892
30.1876,0.031531532
30.2073,0.022522523
30.227,0.023648649
30.2468,0.021396396
30.2665,0.021396396
30.2862,0.013513514
30.3059,0.030405405
30.3256,0.028153153
30.3453,0.023648649
30.365,0.029279279
30.3847,0.030405405
30.4044,0.031531532
30.4241,0.03490991
30.4438,0.029279279
30.4635,0.039414414
30.4832,0.025900901
30.5029,0.03490991
30.5226,0.036036036
30.5423,0.033783784
30.5621,0.029279279
30.5818,0.036036036
30.6015,0.025900901
30.6212,0.027027027
30.6409,0.027027027
30.6606,0.018018018
30.6803,0.031531532
30.7,0.032657658
30.7197,0.023648649
30.7394,0.030405405
30.7591,0.038288288
30.7788,0.029279279
30.7985,0.023648649
30.8182,0.025900901
30.8379,0.031531532
30.8577,0.028153153
30.8774,0.016891892
30.8971,0.025900901
30.9168,0.027027027
30.9365,0.023648649
30.9562,0.027027027
30.9759,0.031531532
30.9956,0.027027027
31.0153,0.02027027
31.035,0.027027027
31.0547,0.040540541
31.0744,0.040540541
31.0941,0.03490991
31.1138,0.052927928
31.1335,0.031531532
31.1533,0.037162162
31.173,0.037162162
31.1927,0.046171171
31.2124,0.02027027
31.2321,0.022522523
31.2518,0.036036036
31.2715,0.03490991
31.2912,0.040540541
31.3109,0.022522523
31.3306,0.028153153
31.3503,0.03490991
31.37,0.033783784
31.3897,0.029279279
31.4094,0.027027027
31.4291,0.027027027
31.4488,0.027027027
31.4686,0.033783784
31.4883,0.043918919
31.508,0.030405405
31.5277,0.042792793
31.5474,0.03490991
31.5671,0.038288288
31.5868,0.029279279
31.6065,0.047297297
31.6262,0.033783784
31.6459,0.030405405
31.6656,0.039414414
31.6853,0.023648649
31.705,0.015765766
31.7247,0.023648649
31.7444,0.024774775
31.7642,0.021396396
31.7839,0.025900901
31.8036,0.023648649
31.8233,0.032657658
31.843,0.025900901
31.8627,0.016891892
31.8824,0.029279279
31.9021,0.027027027
31.9218,0.033783784
31.9415,0.016891892
31.9612,0.021396396
31.9809,0.030405405
32.0006,0.01463964
32.0203,0.028153153
32.04,0.025900901
32.0597,0.030405405
32.0795,0.031531532
32.0992,0.025900901
32.1189,0.023648649
32.1386,0.038288288
32.1583,0.031531532
32.178,0.022522523
32.1977,0.028153153
32.2174,0.032657658
32.2371,0.027027027
32.2568,0.032657658
32.2765,0.025900901
32.2962,0.030405405
32.3159,0.024774775
32.3356,0.025900901
32.3553,0.029279279
32.3751,0.031531532
32.3948,0.039414414
32.4145,0.022522523
32.4342,0.022522523
32.4539,0.029279279
32.4736,0.029279279
32.4933,0.023648649
32.513,0.023648649
32.5327,0.03490991
32.5524,0.015765766
32.5721,0.032657658
32.5918,0.02027027
32.6115,0.032657658
32.6312,0.028153153
32.6509,0.025900901
32.6707,0.025900901
32.6904,0.031531532
32.7101,0.032657658
32.7298,0.037162162
32.7495,0.032657658
32.7692,0.028153153
32.7889,0.02027027
32.8086,0.027027027
32.8283,0.031531532
32.848,0.041666667
32.8677,0.036036036
32.8874,0.029279279
32.9071,0.033783784
32.9268,0.028153153
32.9465,0.025900901
32.9662,0.032657658
32.986,0.033783784
33.0057,0.031531532
33.0254,0.029279279
33.0451,0.019144144
33.0648,0.023648649
33.0845,0.028153153
33.1042,0.029279279
33.1239,0.039414414
33.1436,0.02027027
33.1633,0.015765766
33.183,0.030405405
33.2027,0.025900901
33.2224,0.022522523
33.2421,0.024774775
33.2618,0.021396396
33.2816,0.028153153
33.3013,0.02027027
33.321,0.025900901
33.3407,0.025900901
33.3604,0.025900901
33.3801,0.024774775
33.3998,0.016891892
33.4195,0.030405405
33.4392,0.029279279
33.4589,0.032657658
33.4786,0.025900901
33.4983,0.028153153
33.518,0.023648649
33.5377,0.031531532
33.5574,0.032657658
33.5772,0.032657658
33.5969,0.023648649
33.6166,0.038288288
33.6363,0.037162162
33.656,0.030405405
33.6757,0.039414414
33.6954,0.032657658
33.7151,0.037162162
33.7348,0.033783784
33.7545,0.029279279
33.7742,0.027027027
33.7939,0.025900901
33.8136,0.029279279
33.8333,0.022522523
33.853,0.030405405
33.8727,0.030405405
33.8925,0.024774775
33.9122,0.015765766
33.9319,0.022522523
33.9516,0.025900901
33.9713,0.023648649
33.991,0.029279279
34.0107,0.021396396
34.0304,0.038288288
34.0501,0.033783784
34.0698,0.032657658
34.0895,0.022522523
34.1092,0.03490991
34.1289,0.036036036
34.1486,0.046171171
34.1683,0.03490991
34.1881,0.042792793
34.2078,0.028153153
34.2275,0.022522523
34.2472,0.03490991
34.2669,0.033783784
34.2866,0.025900901
34.3063,0.028153153
34.326,0.025900901
34.3457,0.028153153
34.3654,0.033783784
34.3851,0.029279279
34.4048,0.033783784
34.4245,0.039414414
34.4442,0.01463964
34.4639,0.024774775
34.4836,0.019144144
34.5034,0.011261261
34.5231,0.024774775
34.5428,0.023648649
34.5625,0.028153153
34.5822,0.023648649
34.6019,0.015765766
34.6216,0.023648649
34.6413,0.023648649
34.661,0.024774775
34.6807,0.024774775
34.7004,0.028153153
34.7201,0.016891892
34.7398,0.011261261
34.7595,0.024774775
34.7792,0.023648649
34.799,0.022522523
34.8187,0.033783784
34.8384,0.029279279
34.8581,0.025900901
34.8778,0.030405405
34.8975,0.030405405
34.9172,0.023648649
34.9369,0.024774775
34.9566,0.03490991
34.9763,0.029279279
34.996,0.031531532
35.0157,0.015765766
35.0354,0.023648649
35.0551,0.029279279
35.0748,0.018018018
35.0946,0.031531532
35.1143,0.036036036
35.134,0.03490991
35.1537,0.038288288
35.1734,0.032657658
35.1931,0.033783784
35.2128,0.03490991
35.2325,0.037162162
35.2522,0.031531532
35.2719,0.033783784
35.2916,0.043918919
35.3113,0.038288288
35.331,0.029279279
35.3507,0.036036036
35.3704,0.024774775
35.3901,0.032657658
35.4099,0.027027027
35.4296,0.031531532
35.4493,0.03490991
35.469,0.029279279
35.4887,0.024774775
35.5084,0.024774775
35.5281,0.032657658
35.5478,0.031531532
35.5675,0.024774775
35.5872,0.022522523
35.6069,0.023648649
35.6266,0.018018018
35.6463,0.023648649
35.666,0.024774775
35.6857,0.030405405
35.7055,0.033783784
35.7252,0.047297297
35.7449,0.041666667
35.7646,0.040540541
35.7843,0.032657658
35.804,0.042792793
35.8237,0.03490991
35.8434,0.040540541
35.8631,0.03490991
35.8828,0.032657658
35.9025,0.03490991
35.9222,0.030405405
35.9419,0.022522523
35.9616,0.027027027
35.9813,0.032657658
36.001,0.023648649
36.0208,0.025900901
36.0405,0.023648649
36.0602,0.022522523
36.0799,0.024774775
36.0996,0.028153153
36.1193,0.021396396
36.139,0.029279279
36.1587,0.019144144
36.1784,0.021396396
36.1981,0.02027027
36.2178,0.029279279
36.2375,0.013513514
36.2572,0.024774775
36.2769,0.029279279
36.2966,0.028153153
36.3164,0.031531532
36.3361,0.022522523
36.3558,0.024774775
36.3755,0.018018018
36.3952,0.015765766
36.4149,0.024774775
36.4346,0.031531532
36.4543,0.024774775
36.474,0.028153153
36.4937,0.022522523
36.5134,0.025900901
36.5331,0.022522523
36.5528,0.024774775
36.5725,0.029279279
36.5922,0.01463964
36.612,0.039414414
36.6317,0.029279279
36.6514,0.022522523
36.6711,0.025900901
36.6908,0.029279279
36.7105,0.029279279
36.7302,0.019144144
36.7499,0.025900901
36.7696,0.02027027
36.7893,0.031531532
36.809,0.022522523
36.8287,0.022522523
36.8484,0.019144144
36.8681,0.02027027
36.8878,0.028153153
36.9075,0.024774775
36.9273,0.022522523
36.947,0.030405405
36.9667,0.030405405
36.9864,0.037162162
37.0061,0.023648649
37.0258,0.028153153
37.0455,0.030405405
37.0652,0.024774775
37.0849,0.033783784
37.1046,0.038288288
37.1243,0.030405405
37.144,0.033783784
37.1637,0.025900901
37.1834,0.033783784
37.2031,0.023648649
37.2229,0.030405405
37.2426,0.033783784
37.2623,0.029279279
37.282,0.028153153
37.3017,0.025900901
37.3214,0.025900901
37.3411,0.024774775
37.3608,0.021396396
37.3805,0.015765766
37.4002,0.021396396
37.4199,0.037162162
37.4396,0.030405405
37.4593,0.027027027
37.479,0.032657658
37.4987,0.032657658
37.5185,0.024774775
37.5382,0.036036036
37.5579,0.040540541
37.5776,0.028153153
37.5973,0.031531532
37.617,0.027027027
37.6367,0.031531532
37.6564,0.024774775
37.6761,0.029279279
37.6958,0.024774775
37.7155,0.022522523
37.7352,0.038288288
37.7549,0.023648649
37.7746,0.032657658
37.7943,0.032657658
37.814,0.019144144
37.8338,0.031531532
37.8535,0.027027027
37.8732,0.018018018
37.8929,0.031531532
37.9126,0.027027027
37.9323,0.023648649
37.952,0.028153153
37.9717,0.033783784
37.9914,0.028153153
38.0111,0.03490991
38.0308,0.021396396
38.0505,0.023648649
38.0702,0.039414414
38.0899,0.037162162
38.1096,0.032657658
38.1294,0.028153153
38.1491,0.038288288
38.1688,0.024774775
38.1885,0.025900901
38.2082,0.029279279
38.2279,0.016891892
38.2476,0.031531532
38.2673,0.027027027
38.287,0.024774775
38.3067,0.016891892
38.3264,0.028153153
38.3461,0.024774775
38.3658,0.027027027
38.3855,0.03490991
38.4052,0.023648649
38.4249,0.023648649
38.4447,0.015765766
38.4644,0.039414414
38.4841,0.029279279
38.5038,0.030405405
38.5235,0.042792793
38.5432,0.037162162
38.5629,0.036036036
38.5826,0.036036036
38.6023,0.038288288
38.622,0.038288288
38.6417,0.045045045
38.6614,0.030405405
38.6811,0.037162162
38.7008,0.045045045
38.7205,0.03490991
38.7403,0.032657658
38.76,0.025900901
38.7797,0.031531532
38.7994,0.032657658
38.8191,0.028153153
38.8388,0.027027027
38.8585,0.028153153
38.8782,0.02027027
38.8979,0.022522523
38.9176,0.030405405
38.9373,0.030405405
38.957,0.036036036
38.9767,0.03490991
38.9964,0.019144144
39.0161,0.022522523
39.0359,0.025900901
39.0556,0.033783784
39.0753,0.033783784
39.095,0.022522523
39.1147,0.025900901
39.1344,0.027027027
39.1541,0.037162162
39.1738,0.031531532
39.1935,0.030405405
39.2132,0.048423423
39.2329,0.03490991
39.2526,0.025900901
39.2723,0.029279279
39.292,0.033783784
39.3117,0.033783784
39.3314,0.027027027
39.3512,0.042792793
39.3709,0.029279279
39.3906,0.027027027
39.4103,0.028153153
39.43,0.030405405
39.4497,0.027027027
39.4694,0.025900901
39.4891,0.036036036
39.5088,0.029279279
39.5285,0.03490991
39.5482,0.025900901
39.5679,0.022522523
39.5876,0.027027027
39.6073,0.025900901
39.627,0.036036036
39.6468,0.029279279
39.6665,0.031531532
39.6862,0.025900901
39.7059,0.041666667
39.7256,0.042792793
39.7453,0.033783784
39.765,0.031531532
39.7847,0.027027027
39.8044,0.027027027
39.8241,0.032657658
39.8438,0.02027027
39.8635,0.042792793
39.8832,0.029279279
39.9029,0.021396396
39.9226,0.027027027
39.9423,0.032657658
39.9621,0.028153153
39.9818,0.023648649
40.0015,0.027027027
